# Time (s),Altitude (m),Vertical velocity (m/s),Longitudinal moment of inertia (kg·m²),Rotational moment of inertia (kg·m²),CG location (m),Mach number (​)
0.01,4.00E-04,0.08,2.492,0.016,1.211,2.35E-04
0.02,0.003,0.516,2.491,0.016,1.211,0.002
0.03,0.012,1.308,2.491,0.016,1.21,0.004
0.04,0.031,2.454,2.49,0.016,1.21,0.007
0.05,0.062,3.736,2.489,0.016,1.21,0.011
0.06,0.106,5.002,2.487,0.016,1.21,0.015
0.07,0.162,6.254,2.486,0.016,1.209,0.018
0.08,0.231,7.49,2.485,0.016,1.209,0.022
0.09,0.312,8.71,2.483,0.016,1.209,0.026
0.1,0.405,9.916,2.482,0.016,1.208,0.029
0.11,0.51,11.106,2.481,0.016,1.208,0.033
0.12,0.627,12.28,2.479,0.016,1.208,0.036
0.13,0.756,13.442,2.478,0.016,1.207,0.039
0.14,0.896,14.591,2.477,0.016,1.207,0.043
0.15,1.047,15.729,2.476,0.016,1.207,0.046
0.16,1.21,16.855,2.474,0.016,1.207,0.05
0.17,1.385,17.97,2.473,0.016,1.206,0.053
0.18,1.57,19.072,2.472,0.016,1.206,0.056
0.19,1.766,20.163,2.471,0.016,1.206,0.059
0.2,1.973,21.242,2.469,0.016,1.205,0.062
0.21,2.191,22.311,2.468,0.016,1.205,0.066
0.22,2.419,23.371,2.467,0.016,1.205,0.069
0.23,2.658,24.422,2.466,0.016,1.204,0.072
0.24,2.908,25.465,2.465,0.016,1.204,0.075
0.25,3.167,26.499,2.464,0.016,1.204,0.078
0.26,3.437,27.524,2.463,0.016,1.204,0.081
0.27,3.718,28.54,2.461,0.016,1.203,0.084
0.28,4.008,29.547,2.46,0.016,1.203,0.087
0.29,4.309,30.546,2.459,0.016,1.203,0.09
0.3,4.619,31.535,2.458,0.016,1.203,0.093
0.31,4.939,32.516,2.457,0.016,1.202,0.096
0.32,5.269,33.487,2.456,0.016,1.202,0.098
0.335,5.782,34.928,2.454,0.016,1.202,0.103
0.358,6.592,37.052,2.452,0.016,1.201,0.109
0.391,7.895,40.164,2.448,0.016,1.2,0.118
0.441,10.015,44.64,2.443,0.016,1.199,0.131
0.491,12.354,48.921,2.438,0.016,1.198,0.144
0.541,14.902,52.988,2.434,0.016,1.197,0.156
0.591,17.648,56.864,2.429,0.016,1.196,0.167
0.641,20.584,60.569,2.425,0.016,1.194,0.178
0.691,23.702,64.133,2.42,0.016,1.193,0.188
0.741,26.994,67.546,2.416,0.016,1.192,0.198
0.791,30.453,70.82,2.412,0.016,1.191,0.208
0.841,34.074,74.041,2.408,0.016,1.19,0.218
0.891,37.855,77.189,2.405,0.016,1.19,0.227
0.941,41.791,80.227,2.401,0.016,1.189,0.236
0.991,45.876,83.178,2.397,0.016,1.188,0.244
1.041,50.106,86.022,2.394,0.016,1.187,0.253
1.091,54.474,88.696,2.39,0.016,1.186,0.261
1.141,58.972,91.254,2.387,0.016,1.185,0.268
1.191,63.597,93.725,2.384,0.016,1.184,0.276
1.241,68.342,96.071,2.381,0.016,1.184,0.282
1.291,73.198,98.193,2.378,0.016,1.183,0.289
1.341,78.152,99.958,2.375,0.016,1.182,0.294
1.391,83.187,101.439,2.373,0.016,1.182,0.298
1.441,88.29,102.688,2.371,0.016,1.181,0.302
1.491,93.452,103.789,2.369,0.016,1.181,0.305
1.541,98.664,104.675,2.368,0.016,1.18,0.308
1.591,103.913,105.306,2.366,0.016,1.18,0.31
1.641,109.19,105.765,2.365,0.016,1.18,0.311
1.691,114.486,106.076,2.364,0.016,1.18,0.312
1.741,119.795,106.262,2.363,0.016,1.179,0.313
1.791,125.111,106.38,2.362,0.016,1.179,0.313
1.841,130.431,106.427,2.362,0.016,1.179,0.313
1.891,135.749,106.307,2.361,0.016,1.179,0.313
1.941,141.058,106.055,2.36,0.016,1.179,0.312
1.991,146.352,105.703,2.36,0.016,1.179,0.311
2.041,151.624,105.183,2.36,0.016,1.179,0.31
2.052,152.754,105.048,2.36,0.016,1.179,0.309
2.068,154.447,104.839,2.36,0.016,1.179,0.309
2.092,156.979,104.526,2.36,0.016,1.179,0.308
2.129,160.762,104.056,2.36,0.016,1.179,0.306
2.179,165.949,103.412,2.36,0.016,1.179,0.304
2.229,171.104,102.769,2.36,0.016,1.179,0.303
2.279,176.226,102.129,2.36,0.016,1.179,0.301
2.329,181.317,101.49,2.36,0.016,1.179,0.299
2.379,186.375,100.854,2.36,0.016,1.179,0.297
2.429,191.402,100.219,2.36,0.016,1.179,0.295
2.479,196.397,99.586,2.36,0.016,1.179,0.293
2.529,201.361,98.956,2.36,0.016,1.179,0.291
2.579,206.293,98.327,2.36,0.016,1.179,0.29
2.629,211.193,97.7,2.36,0.016,1.179,0.288
2.679,216.063,97.075,2.36,0.016,1.179,0.286
2.729,220.901,96.452,2.36,0.016,1.179,0.284
2.779,225.708,95.831,2.36,0.016,1.179,0.282
2.829,230.484,95.211,2.36,0.016,1.179,0.28
2.879,235.229,94.593,2.36,0.016,1.179,0.279
2.929,239.943,93.977,2.36,0.016,1.179,0.277
2.979,244.627,93.363,2.36,0.016,1.179,0.275
3.029,249.28,92.751,2.36,0.016,1.179,0.273
3.079,253.902,92.14,2.36,0.016,1.179,0.271
3.129,258.494,91.531,2.36,0.016,1.179,0.27
3.179,263.055,90.923,2.36,0.016,1.179,0.268
3.229,267.586,90.317,2.36,0.016,1.179,0.266
3.279,272.087,89.713,2.36,0.016,1.179,0.264
3.329,276.557,89.111,2.36,0.016,1.179,0.263
3.379,280.998,88.51,2.36,0.016,1.179,0.261
3.429,285.408,87.91,2.36,0.016,1.179,0.259
3.479,289.789,87.312,2.36,0.016,1.179,0.257
3.529,294.14,86.716,2.36,0.016,1.179,0.256
3.579,298.46,86.121,2.36,0.016,1.179,0.254
3.629,302.752,85.528,2.36,0.016,1.179,0.252
3.679,307.013,84.936,2.36,0.016,1.179,0.25
3.729,311.245,84.346,2.36,0.016,1.179,0.249
3.779,315.448,83.757,2.36,0.016,1.179,0.247
3.829,319.621,83.17,2.36,0.016,1.179,0.245
3.879,323.765,82.584,2.36,0.016,1.179,0.244
3.929,327.879,81.999,2.36,0.016,1.179,0.242
3.979,331.965,81.416,2.36,0.016,1.179,0.24
4.029,336.021,80.834,2.36,0.016,1.179,0.238
4.079,340.048,80.254,2.36,0.016,1.179,0.237
4.129,344.046,79.674,2.36,0.016,1.179,0.235
4.179,348.016,79.097,2.36,0.016,1.179,0.233
4.229,351.956,78.52,2.36,0.016,1.179,0.232
4.279,355.868,77.945,2.36,0.016,1.179,0.23
4.329,359.751,77.371,2.36,0.016,1.179,0.228
4.379,363.605,76.799,2.36,0.016,1.179,0.227
4.429,367.431,76.227,2.36,0.016,1.179,0.225
4.479,371.228,75.657,2.36,0.016,1.179,0.223
4.529,374.996,75.089,2.36,0.016,1.179,0.222
4.579,378.736,74.521,2.36,0.016,1.179,0.22
4.629,382.448,73.955,2.36,0.016,1.179,0.218
4.679,386.132,73.389,2.36,0.016,1.179,0.217
4.729,389.787,72.825,2.36,0.016,1.179,0.215
4.779,393.415,72.263,2.36,0.016,1.179,0.213
4.829,397.014,71.701,2.36,0.016,1.179,0.212
4.879,400.585,71.14,2.36,0.016,1.179,0.21
4.929,404.128,70.581,2.36,0.016,1.179,0.208
4.979,407.643,70.023,2.36,0.016,1.179,0.207
5.029,411.13,69.465,2.36,0.016,1.179,0.205
5.079,414.589,68.909,2.36,0.016,1.179,0.203
5.129,418.021,68.354,2.36,0.016,1.179,0.202
5.179,421.425,67.8,2.36,0.016,1.179,0.2
5.229,424.801,67.247,2.36,0.016,1.179,0.199
5.279,428.15,66.696,2.36,0.016,1.179,0.197
5.329,431.471,66.145,2.36,0.016,1.179,0.195
5.379,434.764,65.595,2.36,0.016,1.179,0.194
5.429,438.03,65.046,2.36,0.016,1.179,0.192
5.479,441.269,64.499,2.36,0.016,1.179,0.19
5.529,444.48,63.952,2.36,0.016,1.179,0.189
5.579,447.664,63.406,2.36,0.016,1.179,0.187
5.629,450.821,62.861,2.36,0.016,1.179,0.186
5.679,453.95,62.317,2.36,0.016,1.179,0.184
5.729,457.052,61.774,2.36,0.016,1.179,0.182
5.779,460.127,61.232,2.36,0.016,1.179,0.181
5.829,463.175,60.691,2.36,0.016,1.179,0.179
5.879,466.197,60.151,2.36,0.016,1.179,0.178
5.929,469.191,59.612,2.36,0.016,1.179,0.176
5.979,472.158,59.073,2.36,0.016,1.179,0.175
6.029,475.098,58.536,2.36,0.016,1.179,0.173
6.079,478.011,57.999,2.36,0.016,1.179,0.171
6.129,480.898,57.464,2.36,0.016,1.179,0.17
6.179,483.758,56.929,2.36,0.016,1.179,0.168
6.229,486.591,56.395,2.36,0.016,1.179,0.167
6.279,489.397,55.861,2.36,0.016,1.179,0.165
6.329,492.177,55.329,2.36,0.016,1.179,0.163
6.379,494.93,54.797,2.36,0.016,1.179,0.162
6.429,497.657,54.267,2.36,0.016,1.179,0.16
6.479,500.357,53.737,2.36,0.016,1.179,0.159
6.529,503.03,53.207,2.36,0.016,1.179,0.157
6.579,505.678,52.679,2.36,0.016,1.179,0.156
6.629,508.298,52.151,2.36,0.016,1.179,0.154
6.679,510.893,51.624,2.36,0.016,1.179,0.153
6.729,513.461,51.098,2.36,0.016,1.179,0.151
6.779,516.003,50.573,2.36,0.016,1.179,0.149
6.829,518.518,50.048,2.36,0.016,1.179,0.148
6.879,521.007,49.524,2.36,0.016,1.179,0.146
6.929,523.471,49.001,2.36,0.016,1.179,0.145
6.979,525.907,48.478,2.36,0.016,1.179,0.143
7.029,528.318,47.957,2.36,0.016,1.179,0.142
7.079,530.703,47.435,2.36,0.016,1.179,0.14
7.129,533.062,46.915,2.36,0.016,1.179,0.139
7.179,535.395,46.395,2.36,0.016,1.179,0.137
7.229,537.701,45.876,2.36,0.016,1.179,0.136
7.279,539.982,45.357,2.36,0.016,1.179,0.134
7.329,542.237,44.84,2.36,0.016,1.179,0.133
7.379,544.466,44.322,2.36,0.016,1.179,0.131
7.429,546.669,43.806,2.36,0.016,1.179,0.13
7.479,548.847,43.29,2.36,0.016,1.179,0.128
7.529,550.998,42.774,2.36,0.016,1.179,0.126
7.579,553.124,42.26,2.36,0.016,1.179,0.125
7.629,555.224,41.745,2.36,0.016,1.179,0.123
7.679,557.299,41.232,2.36,0.016,1.179,0.122
7.729,559.348,40.719,2.36,0.016,1.179,0.12
7.779,561.371,40.206,2.36,0.016,1.179,0.119
7.829,563.368,39.695,2.36,0.016,1.179,0.117
7.879,565.34,39.183,2.36,0.016,1.179,0.116
7.929,567.287,38.672,2.36,0.016,1.179,0.114
7.979,569.207,38.162,2.36,0.016,1.179,0.113
8.029,571.103,37.653,2.36,0.016,1.179,0.111
8.079,572.973,37.143,2.36,0.016,1.179,0.11
8.129,574.817,36.635,2.36,0.016,1.179,0.108
8.179,576.636,36.127,2.36,0.016,1.179,0.107
8.229,578.43,35.619,2.36,0.016,1.179,0.105
8.279,580.198,35.112,2.36,0.016,1.179,0.104
8.329,581.941,34.605,2.36,0.016,1.179,0.102
8.379,583.659,34.099,2.36,0.016,1.179,0.101
8.429,585.351,33.593,2.36,0.016,1.179,0.099
8.479,587.018,33.088,2.36,0.016,1.179,0.098
8.529,588.66,32.583,2.36,0.016,1.179,0.096
8.579,590.276,32.079,2.36,0.016,1.179,0.095
8.629,591.868,31.575,2.36,0.016,1.179,0.093
8.679,593.434,31.072,2.36,0.016,1.179,0.092
8.729,594.975,30.569,2.36,0.016,1.179,0.09
8.779,596.491,30.066,2.36,0.016,1.179,0.089
8.829,597.981,29.564,2.36,0.016,1.179,0.087
8.879,599.447,29.062,2.36,0.016,1.179,0.086
8.929,600.888,28.561,2.36,0.016,1.179,0.084
8.979,602.303,28.06,2.36,0.016,1.179,0.083
9.029,603.694,27.559,2.36,0.016,1.179,0.082
9.079,605.059,27.059,2.36,0.016,1.179,0.08
9.129,606.4,26.559,2.36,0.016,1.179,0.079
9.179,607.715,26.06,2.36,0.016,1.179,0.077
9.229,609.006,25.561,2.36,0.016,1.179,0.076
9.279,610.271,25.062,2.36,0.016,1.179,0.074
9.329,611.512,24.563,2.36,0.016,1.179,0.073
9.379,612.727,24.065,2.36,0.016,1.179,0.071
9.429,613.918,23.568,2.36,0.016,1.179,0.07
9.479,615.084,23.07,2.36,0.016,1.179,0.068
9.529,616.225,22.573,2.36,0.016,1.179,0.067
9.579,617.342,22.076,2.36,0.016,1.179,0.065
9.629,618.433,21.58,2.36,0.016,1.179,0.064
9.679,619.5,21.084,2.36,0.016,1.179,0.062
9.729,620.541,20.588,2.36,0.016,1.179,0.061
9.779,621.558,20.092,2.36,0.016,1.179,0.059
9.829,622.551,19.597,2.36,0.016,1.179,0.058
9.879,623.518,19.102,2.36,0.016,1.179,0.057
9.929,624.461,18.607,2.36,0.016,1.179,0.055
9.979,625.379,18.113,2.36,0.016,1.179,0.054
10.029,626.272,17.619,2.36,0.016,1.179,0.052
10.079,627.141,17.125,2.36,0.016,1.179,0.051
10.129,627.985,16.631,2.36,0.016,1.179,0.049
10.179,628.804,16.137,2.36,0.016,1.179,0.048
10.229,629.598,15.644,2.36,0.016,1.179,0.046
10.279,630.368,15.151,2.36,0.016,1.179,0.045
10.329,631.113,14.658,2.36,0.016,1.179,0.043
10.379,631.834,14.165,2.36,0.016,1.179,0.042
10.429,632.53,13.673,2.36,0.016,1.179,0.04
10.479,633.201,13.181,2.36,0.016,1.179,0.039
10.529,633.848,12.689,2.36,0.016,1.179,0.038
10.579,634.47,12.197,2.36,0.016,1.179,0.036
10.629,635.068,11.705,2.36,0.016,1.179,0.035
10.679,635.641,11.214,2.36,0.016,1.179,0.033
10.729,636.189,10.722,2.36,0.016,1.179,0.032
10.779,636.713,10.231,2.36,0.016,1.179,0.03
10.829,637.212,9.74,2.36,0.016,1.179,0.029
10.879,637.687,9.249,2.36,0.016,1.179,0.027
10.929,638.137,8.758,2.36,0.016,1.179,0.026
10.979,638.563,8.267,2.36,0.016,1.179,0.024
11.029,638.964,7.777,2.36,0.016,1.179,0.023
11.079,639.34,7.286,2.36,0.016,1.179,0.022
11.129,639.692,6.796,2.36,0.016,1.179,0.02
11.179,640.02,6.306,2.36,0.016,1.179,0.019
11.229,640.323,5.816,2.36,0.016,1.179,0.017
11.279,640.602,5.326,2.36,0.016,1.179,0.016
11.329,640.856,4.836,2.36,0.016,1.179,0.014
11.379,641.085,4.346,2.36,0.016,1.179,0.013
11.429,641.29,3.856,2.36,0.016,1.179,0.011
11.479,641.471,3.366,2.36,0.016,1.179,0.01
11.529,641.627,2.877,2.36,0.016,1.179,0.009
11.579,641.758,2.387,2.36,0.016,1.179,0.007
11.629,641.865,1.897,2.36,0.016,1.179,0.006
11.679,641.948,1.408,2.36,0.016,1.179,0.004
11.729,642.006,0.918,2.36,0.016,1.179,0.003
11.779,642.04,0.429,2.36,0.016,1.179,0.001
11.829,642.049,-0.061,2.36,0.016,1.179,2.81E-04
11.879,642.034,-0.55,2.36,0.016,1.179,0.002